T(K),expa(1/K)
293,0.000004
300,0.000004
400,0.000005
500,0.0000056
600,0.0000062
700,0.0000067
800,0.0000071
1000,0.0000074
1200,0.0000076
1400,0.0000081
1600,0.0000085
1800,0.0000088
2000,0.000009
2200,0.0000093
2400,0.0000095
2600,0.0000097
2800,0.0000102
3000,0.0000102
