T(K),visc(kg/m-s)
220,0.00000728
240,0.00000772
260,0.00000815
280,0.00000857
300,0.00000898
350,0.00000996
400,0.0000109
450,0.0000118
500,0.0000127
550,0.0000135
600,0.0000144
700,0.0000159
800,0.0000174
900,0.0000189
1000,0.0000203
1200,0.000023
1400,0.0000256
1600,0.000028
1800,0.0000304
2000,0.0000326
2200,0.0000345
2400,0.0000366
2600,0.0000387
2800,0.0000408
3000,0.000043
